Frequency	Imp. Mag	Imp. Angle
+1.00000000000000E+001	+1.11609027992171E+001	-9.17743082777866E+001
+1.01676717875845E+001	+1.10171512872428E+001	-9.17469252694083E+001
+1.03381549580041E+001	+1.08729483244518E+001	-9.17107112188862E+001
+1.05114966502175E+001	+1.07300560073615E+001	-9.16616217950768E+001
+1.06877447935705E+001	+1.05848786778840E+001	-9.16237724818278E+001
+1.08669481210489E+001	+1.04413585043931E+001	-9.15816268166441E+001
+1.10491561827533E+001	+1.02978597947860E+001	-9.15455344358274E+001
+1.12344193595996E+001	+1.01554020434435E+001	-9.15140374052187E+001
+1.14227888772493E+001	+1.00108993110690E+001	-9.14770326937963E+001
+1.16143168202742E+001	+9.86820044665407E+000	-9.14396043911472E+001
+1.18090561465569E+001	+9.72291760424247E+000	-9.14000227439166E+001
+1.20070607019348E+001	+9.58021847819678E+000	-9.13747490758380E+001
+1.22083852350876E+001	+9.43624774541338E+000	-9.13354743463916E+001
+1.24130854126763E+001	+9.29218012585310E+000	-9.12965485173484E+001
+1.26212178347345E+001	+9.14904060130193E+000	-9.12644228225477E+001
+1.28328400503188E+001	+9.00500379511072E+000	-9.12433218061891E+001
+1.30480105734211E+001	+8.86218004619896E+000	-9.12005289256618E+001
+1.32667888991477E+001	+8.71864426057157E+000	-9.11784722081720E+001
+1.34892355201703E+001	+8.57506369974796E+000	-9.11502216468316E+001
+1.37154119434518E+001	+8.43218336979118E+000	-9.11122818074414E+001
+1.39453807072534E+001	+8.28815497149805E+000	-9.10861040023993E+001
+1.41792053984265E+001	+8.14497054432806E+000	-9.10552414887026E+001
+1.44169506699946E+001	+8.00051372562788E+000	-9.10252745261904E+001
+1.46586822590301E+001	+7.85814698891963E+000	-9.09941405823790E+001
+1.49044670048306E+001	+7.71448001151689E+000	-9.09632731830595E+001
+1.51543728673999E+001	+7.57025159865783E+000	-9.09396225131288E+001
+1.54084689462398E+001	+7.42764276594879E+000	-9.09131605255616E+001
+1.56668254994554E+001	+7.28387755218535E+000	-9.08824146775044E+001
+1.59295139631821E+001	+7.14045962433348E+000	-9.08548051135526E+001
+1.61966069713380E+001	+6.99640000062533E+000	-9.08335136098738E+001
+1.64681783757067E+001	+6.85283333793429E+000	-9.08079944444990E+001
+1.67443032663581E+001	+6.70947870727356E+000	-9.07857691422606E+001
+1.70250579924108E+001	+6.56626684501329E+000	-9.07632033874227E+001
+1.73105201831425E+001	+6.42283580029392E+000	-9.07387393836018E+001
+1.76007687694549E+001	+6.27899912936659E+000	-9.07127948163150E+001
+1.78958840056985E+001	+6.13526248939301E+000	-9.06886737889988E+001
+1.81959474918624E+001	+5.99265349596616E+000	-9.06609010691111E+001
+1.85010421961378E+001	+5.84920579215067E+000	-9.06410659618517E+001
+1.88112524778580E+001	+5.70544934630620E+000	-9.06211756646224E+001
+1.91266641108245E+001	+5.56178116732107E+000	-9.05937730050777E+001
+1.94473643070235E+001	+5.41852007775401E+000	-9.05703022516554E+001
+1.97734417407400E+001	+5.27526705855751E+000	-9.05509621082918E+001
+2.01049865730767E+001	+5.13229783786679E+000	-9.05372405148892E+001
+2.04420904768836E+001	+4.98817720841731E+000	-9.05163339201108E+001
+2.07848466621059E+001	+4.84517189662531E+000	-9.04930324339815E+001
+2.11333499015563E+001	+4.70159656653253E+000	-9.04750563983447E+001
+2.14876965571205E+001	+4.55835925839902E+000	-9.04542050878178E+001
+2.18479846064010E+001	+4.41471656806811E+000	-9.04339008684197E+001
+2.22143136698083E+001	+4.27118981050497E+000	-9.04123780801326E+001
+2.25867850381062E+001	+4.12857958870460E+000	-9.03936662477725E+001
+2.29655017004187E+001	+3.98455813027327E+000	-9.03724678048597E+001
+2.33505683727071E+001	+3.84126504966027E+000	-9.03537315875389E+001
+2.37420915267236E+001	+3.69740282591237E+000	-9.03367058324821E+001
+2.41401794194515E+001	+3.55367045421074E+000	-9.03159856337398E+001
+2.45449421230385E+001	+3.41111407907479E+000	-9.03048206962935E+001
+2.49564915552312E+001	+3.26751682338202E+000	-9.02854804908775E+001
+2.53749415103214E+001	+3.12395272412904E+000	-9.02707556160949E+001
+2.58004076906101E+001	+2.98085727523924E+000	-9.02540037609123E+001
+2.62330077383993E+001	+2.83736233378108E+000	-9.02335249248866E+001
+2.66728612685208E+001	+2.69500047362766E+000	-9.02205588041064E+001
+2.71200899014093E+001	+2.55003152653731E+000	-9.02032859005340E+001
+2.75748172967314E+001	+2.40712473138072E+000	-9.01826500446223E+001
+2.80371691875772E+001	+2.26418872998694E+000	-9.01702711502180E+001
+2.85072734152261E+001	+2.12006881909473E+000	-9.01517314879023E+001
+2.89852599644951E+001	+1.97719934407698E+000	-9.01409495762956E+001
+2.94712609996799E+001	+1.83390979001268E+000	-9.01276929056490E+001
+2.99654109010983E+001	+1.69010996324401E+000	-9.01106630794575E+001
+3.04678463022473E+001	+1.54650445454513E+000	-9.00941916639206E+001
+3.09787061275820E+001	+1.40324472033975E+000	-9.00817210090885E+001
+3.14981316309285E+001	+1.25999783104440E+000	-9.00612866477221E+001
+3.20262664345414E+001	+1.11637053460367E+000	-9.00537271401937E+001
+3.25632565688150E+001	+9.72966809688983E-001	-9.00384048165553E+001
+3.31092505126615E+001	+8.30420250914194E-001	-9.00263646321409E+001
+3.36643992345655E+001	+6.86870025905149E-001	-9.00119231727900E+001
+3.42288562343271E+001	+5.43144586781857E-001	-8.99997283619685E+001
+3.48027775855053E+001	+3.99750542308376E-001	-8.99879825907838E+001
+3.53863219785719E+001	+2.55968213501077E-001	-8.99705931724594E+001
+3.59796507647905E+001	+1.13291482430234E-001	-8.99598444163432E+001
+3.65829280008303E+001	-2.98862904646218E-002	-8.99473091067256E+001
+3.71963204941276E+001	-1.73484021745496E-001	-8.99341878530013E+001
+3.78199978490091E+001	-3.16212979983912E-001	-8.99235248929635E+001
+3.84541325135875E+001	-4.60139848206731E-001	-8.99082180165669E+001
+3.90988998274438E+001	-6.02952981403086E-001	-8.99007140404121E+001
+3.97544780701091E+001	-7.45924765885361E-001	-8.98851442580972E+001
+4.04210485103594E+001	-8.88978018885582E-001	-8.98767661914833E+001
+4.10987954563364E+001	-1.03292215504411E+000	-8.98635530058796E+001
+4.17879063065097E+001	-1.17621648223386E+000	-8.98546674794650E+001
+4.24885716014921E+001	-1.31969165838160E+000	-8.98422229246902E+001
+4.32009850767254E+001	-1.46327280239983E+000	-8.98295370902537E+001
+4.39253437160478E+001	-1.60663303161322E+000	-8.98190631910705E+001
+4.46618478061610E+001	-1.75025637200911E+000	-8.98096297193868E+001
+4.54107009920094E+001	-1.89323103651081E+000	-8.97978977445641E+001
+4.61721103330888E+001	-2.03717454598762E+000	-8.97883064813571E+001
+4.69462863606985E+001	-2.18066690631315E+000	-8.97856263308738E+001
+4.77334431361535E+001	-2.32426914667313E+000	-8.97643999799011E+001
+4.85337983099736E+001	-2.46716311129884E+000	-8.97342416912474E+001
+4.93475731820633E+001	-2.61741985647137E+000	-8.96333508653039E+001
+5.01749927629024E+001	-2.77821814583871E+000	-8.98180021461866E+001
+5.10162858357618E+001	-2.88576343095843E+000	-8.97236473309498E+001
+5.18716850199620E+001	-3.04115273322311E+000	-8.97145996849244E+001
+5.27414268351936E+001	-3.18524340359179E+000	-8.96984392696630E+001
+5.36257517669148E+001	-3.32705560375629E+000	-8.96932598601072E+001
+5.45249043328467E+001	-3.47041007564848E+000	-8.96827685554795E+001
+5.54391331505827E+001	-3.61465784488222E+000	-8.96764058754930E+001
+5.63686910063319E+001	-3.75806160761260E+000	-8.96673531343469E+001
+5.73138349248147E+001	-3.90130629454275E+000	-8.96573981254966E+001
+5.82748262403312E+001	-4.04456960000307E+000	-8.96503946893611E+001
+5.92519306690202E+001	-4.18785106771716E+000	-8.96377372162250E+001
+6.02454183823308E+001	-4.33138245293278E+000	-8.96283103938940E+001
+6.12555640817247E+001	-4.47415685872104E+000	-8.96183041726005E+001
+6.22826470746325E+001	-4.61733025891193E+000	-8.96122232625488E+001
+6.33269513516821E+001	-4.76046010094070E+000	-8.96010582298144E+001
+6.43887656652231E+001	-4.90373115542082E+000	-8.95926985993218E+001
+6.54683836091677E+001	-5.04648908600530E+000	-8.95846433835618E+001
+6.65661037001692E+001	-5.18961748448981E+000	-8.95762412938221E+001
+6.76822294601632E+001	-5.33290054229808E+000	-8.95650230628959E+001
+6.88170695002920E+001	-5.47633811685687E+000	-8.95593931167099E+001
+6.99709376062358E+001	-5.61896359100702E+000	-8.95491452896664E+001
+7.11441528249756E+001	-5.76206910012084E+000	-8.95442408672504E+001
+7.23370395530102E+001	-5.90499639487881E+000	-8.95345951140967E+001
+7.35499276260524E+001	-6.04852665455926E+000	-8.95232978682199E+001
+7.47831524102292E+001	-6.19190630195243E+000	-8.95126439862380E+001
+7.60370548948117E+001	-6.33515872454162E+000	-8.95071382342432E+001
+7.73119817864988E+001	-6.47856942960976E+000	-8.95013481895944E+001
+7.86082856052828E+001	-6.62170410876441E+000	-8.94900894722933E+001
+7.99263247819216E+001	-6.76535767729866E+000	-8.94858171156936E+001
+8.12664637570457E+001	-6.90896629491172E+000	-8.94763046097137E+001
+8.26290730819269E+001	-7.05313420002992E+000	-8.94698419594840E+001
+8.40145295209363E+001	-7.19599610065940E+000	-8.94609978929359E+001
+8.54232161557207E+001	-7.33901058440771E+000	-8.94506500204413E+001
+8.68555224911251E+001	-7.48302870996774E+000	-8.94420734207786E+001
+8.83118445628920E+001	-7.62652235181553E+000	-8.94376084711458E+001
+8.97925850471662E+001	-7.76939663976512E+000	-8.94291884290388E+001
+9.12981533718350E+001	-7.91261806837287E+000	-8.94187568412371E+001
+9.28289658297366E+001	-8.05573761801107E+000	-8.94133269774801E+001
+9.43854456937656E+001	-8.19984703036972E+000	-8.94062329939729E+001
+9.59680233339086E+001	-8.34268386097535E+000	-8.93921386503931E+001
+9.75771363362430E+001	-8.48563487881875E+000	-8.93898579907481E+001
+9.92132296239301E+001	-8.62776141253870E+000	-8.93822767606686E+001
+1.00876755580237E+002	-8.77157719618382E+000	-8.93788785231833E+001
+1.02568174173623E+002	-8.91647875244722E+000	-8.93673732172920E+001
+1.04287953084920E+002	-9.05993039702897E+000	-8.93580665897310E+001
+1.06036567836647E+002	-9.20331521263633E+000	-8.93533349166787E+001
+1.07814501924497E+002	-9.34690563048865E+000	-8.93429360718251E+001
+1.09622246951017E+002	-9.48975604903480E+000	-8.93340939097031E+001
+1.11460302761548E+002	-9.63296685380367E+000	-8.93270358240685E+001
+1.13329177582421E+002	-9.77599932815315E+000	-8.93197898513673E+001
+1.15229388161493E+002	-9.91930286163048E+000	-8.93115718672000E+001
+1.17161459911024E+002	-1.00625386130622E+001	-8.93002570059649E+001
+1.19125927052952E+002	-1.02062387097383E+001	-8.92988463550794E+001
+1.21123332766615E+002	-1.03494975940857E+001	-8.92868227304567E+001
+1.23154229338931E+002	-1.04923454238772E+001	-8.92793364687443E+001
+1.25219178317116E+002	-1.06362444355399E+001	-8.92788373135516E+001
+1.27318750663945E+002	-1.07783920650315E+001	-8.92672771269278E+001
+1.29453526915629E+002	-1.09223771540574E+001	-8.92606983758619E+001
+1.31624097342335E+002	-1.10660937564503E+001	-8.92511194026549E+001
+1.33831062111393E+002	-1.12086755573870E+001	-8.92439991274781E+001
+1.36075031453248E+002	-1.13527705184016E+001	-8.92372696171686E+001
+1.38356625830185E+002	-1.14965380266820E+001	-8.92329447065049E+001
+1.40676476107896E+002	-1.16398392489387E+001	-8.92173658350599E+001
+1.43035223729905E+002	-1.17836397179184E+001	-8.92149207550067E+001
+1.45433520894939E+002	-1.19280066541881E+001	-8.92048437694633E+001
+1.47872030737255E+002	-1.20713206515747E+001	-8.92019010282932E+001
+1.50351427510001E+002	-1.22268673750138E+001	-8.92739042460504E+001
+1.52872396771648E+002	-1.23558766545123E+001	-8.91810098548600E+001
+1.55435635575551E+002	-1.25001642199691E+001	-8.91767102423677E+001
+1.58041852662679E+002	-1.26435496730327E+001	-8.91639031909750E+001
+1.60691768657590E+002	-1.27852920992274E+001	-8.91586339740922E+001
+1.63386116267683E+002	-1.29285756101509E+001	-8.91480358445276E+001
+1.66125640485791E+002	-1.30718744316883E+001	-8.91421591449701E+001
+1.68911098796178E+002	-1.32142394765997E+001	-8.91376855678543E+001
+1.71743261383979E+002	-1.33581740710528E+001	-8.91290397921816E+001
+1.74622911348163E+002	-1.35001855979439E+001	-8.91191100603528E+001
+1.77550844918058E+002	-1.36428650949857E+001	-8.91154701302117E+001
+1.80527871673512E+002	-1.37866441612455E+001	-8.91001129781752E+001
+1.83554814768744E+002	-1.39299423399950E+001	-8.90959768500462E+001
+1.86632511159945E+002	-1.40711586546300E+001	-8.90931509363533E+001
+1.89761811836702E+002	-1.42151548119832E+001	-8.90743010609087E+001
+1.92943582057294E+002	-1.43583504568047E+001	-8.90758550414512E+001
+1.96178701587944E+002	-1.45008265722464E+001	-8.90633037433016E+001
+1.99468064946069E+002	-1.46430736398656E+001	-8.90536417491433E+001
+2.02812581647621E+002	-1.47866819484429E+001	-8.90440132887148E+001
+2.06213176458569E+002	-1.49298588506936E+001	-8.90354053944477E+001
+2.09670789650597E+002	-1.50713916554159E+001	-8.90287142175573E+001
+2.13186377261093E+002	-1.52144143277727E+001	-8.90265274448618E+001
+2.16760911357495E+002	-1.53556252587245E+001	-8.90120606093984E+001
+2.20395380306070E+002	-1.54978844868974E+001	-8.90106366709574E+001
+2.24090789045198E+002	-1.56414287301789E+001	-8.89994285517306E+001
+2.27848159363240E+002	-1.57847914227669E+001	-8.89839364446680E+001
+2.31668530181067E+002	-1.59282363150348E+001	-8.89704475038689E+001
+2.35552957839319E+002	-1.60718089002319E+001	-8.89690893912896E+001
+2.39502516390492E+002	-1.62144470102804E+001	-8.89576925425797E+001
+2.43518297895909E+002	-1.63589596559256E+001	-8.89549336615148E+001
+2.47601412727682E+002	-1.65023204393253E+001	-8.89439938276104E+001
+2.51752989875731E+002	-1.66444373255146E+001	-8.89327466511479E+001
+2.55974177259951E+002	-1.67875789593591E+001	-8.89264661475228E+001
+2.60266142047615E+002	-1.69301972471193E+001	-8.89129297552279E+001
+2.64630070976098E+002	-1.70736829421480E+001	-8.89007133756352E+001
+2.69067170681015E+002	-1.72175067953824E+001	-8.88975042272180E+001
+2.73578668029853E+002	-1.73594141703620E+001	-8.88970109449826E+001
+2.78165810461207E+002	-1.75015909397582E+001	-8.88774751022227E+001
+2.82829866329699E+002	-1.76460870276399E+001	-8.88682255146820E+001
+2.87572125256676E+002	-1.77873547877850E+001	-8.88568556691676E+001
+2.92393898486802E+002	-1.79310788729116E+001	-8.88469496014654E+001
+2.97296519250609E+002	-1.80740492825712E+001	-8.88368302379082E+001
+3.02281343133147E+002	-1.82173397839262E+001	-8.88204798489472E+001
+3.07349748448804E+002	-1.83608072379706E+001	-8.88206985127613E+001
+3.12503136622409E+002	-1.85035817635479E+001	-8.88057720582726E+001
+3.17742932576732E+002	-1.86477605521899E+001	-8.87995484037171E+001
+3.23070585126479E+002	-1.87926546538987E+001	-8.87849173656811E+001
+3.28487567378891E+002	-1.89333849761178E+001	-8.87717653254220E+001
+3.33995377141060E+002	-1.90783716417037E+001	-8.87673848378932E+001
+3.39595537334079E+002	-1.92203463219740E+001	-8.87502283945616E+001
+3.45289596414130E+002	-1.93646836583018E+001	-8.87374561620095E+001
+3.51079128800638E+002	-1.95100375146129E+001	-8.87311938504969E+001
+3.56965735311598E+002	-1.96521304361532E+001	-8.87260480294024E+001
+3.62951043606208E+002	-1.97978422359923E+001	-8.87072666355550E+001
+3.69036708634918E+002	-1.99395797753533E+001	-8.86962976686095E+001
+3.75224413097028E+002	-2.00829894623013E+001	-8.86863773177251E+001
+3.81515867905959E+002	-2.02273636771502E+001	-8.86764958696842E+001
+3.87912812662322E+002	-2.03730702308555E+001	-8.86684253477087E+001
+3.94417016134923E+002	-2.05174726629314E+001	-8.86592417849767E+001
+4.01030276749831E+002	-2.06610227795781E+001	-8.86285414421004E+001
+4.07754423087644E+002	-2.08075910574753E+001	-8.86202857352019E+001
+4.14591314389102E+002	-2.09517289040183E+001	-8.86063022958899E+001
+4.21542841069163E+002	-2.10954311149385E+001	-8.86029875462254E+001
+4.28610925239713E+002	-2.12396311988479E+001	-8.85829968882434E+001
+4.35797521241031E+002	-2.13816169355700E+001	-8.85839207043764E+001
+4.43104616182167E+002	-2.15269286773806E+001	-8.85554816979163E+001
+4.50534230490387E+002	-2.16751761854166E+001	-8.85309297817651E+001
+4.58088418469818E+002	-2.18189226772477E+001	-8.85335658529273E+001
+4.65769268869476E+002	-2.19613093203645E+001	-8.85172297412427E+001
+4.73578905460801E+002	-2.21031143248290E+001	-8.84911045542846E+001
+4.81519487624892E+002	-2.22489794637622E+001	-8.84755929567195E+001
+4.89593210949574E+002	-2.23902055639373E+001	-8.84687625469536E+001
+4.97802307836487E+002	-2.25316861002597E+001	-8.84553157517777E+001
+5.06149048118349E+002	-2.26768099205040E+001	-8.84385120382035E+001
+5.14635739686566E+002	-2.28198041897258E+001	-8.84242263030184E+001
+5.23264729129377E+002	-2.29650704887603E+001	-8.84107215874813E+001
+5.32038402380679E+002	-2.31104251592499E+001	-8.83989803815231E+001
+5.40959185379754E+002	-2.32536748316545E+001	-8.83588250166620E+001
+5.50029544742040E+002	-2.33993425023773E+001	-8.83433546143198E+001
+5.59251988441157E+002	-2.35433209587267E+001	-8.83377275468657E+001
+5.68629066502367E+002	-2.36854601363213E+001	-8.83203080220986E+001
+5.78163371707661E+002	-2.38273371701363E+001	-8.83097983434678E+001
+5.87857540312669E+002	-2.39741310167533E+001	-8.82747130878768E+001
+5.97714252775593E+002	-2.41164118674400E+001	-8.82698885993307E+001
+6.07736234498352E+002	-2.42634444106433E+001	-8.82384305790908E+001
+6.17926256580171E+002	-2.44047405121381E+001	-8.81986478221515E+001
+6.28287136583788E+002	-2.45472859112282E+001	-8.81898190071268E+001
+6.38821739314521E+002	-2.46959633638979E+001	-8.81660649015377E+001
+6.49532977612389E+002	-2.48346610020796E+001	-8.81701577657443E+001
+6.60423813157522E+002	-2.49761408352447E+001	-8.81148195455889E+001
+6.71497257289069E+002	-2.51193655854686E+001	-8.81125552723538E+001
+6.82756371837842E+002	-2.52606973416027E+001	-8.80868274962814E+001
+6.94204269972916E+002	-2.54048389767878E+001	-8.80464809556923E+001
+7.05844117062428E+002	-2.55459508095086E+001	-8.80288098161348E+001
+7.17679131548812E+002	-2.56852790398244E+001	-8.80057222328079E+001
+7.29712585838698E+002	-2.58299795623179E+001	-8.80194237602525E+001
+7.41947807207744E+002	-2.59727852162688E+001	-8.79536340470785E+001
+7.54388178720634E+002	-2.61166813752739E+001	-8.79462082129051E+001
+7.67037140166501E+002	-2.62656707110182E+001	-8.79396120641248E+001
+7.79898189010040E+002	-2.64086858065086E+001	-8.79261595767065E+001
+7.92974881358560E+002	-2.65488438842604E+001	-8.78691083536141E+001
+8.06270832945257E+002	-2.66958492285876E+001	-8.78323996030392E+001
+8.19789720128971E+002	-2.68396469258445E+001	-8.77886627886706E+001
+8.33535280910711E+002	-2.69830846063785E+001	-8.77922895864381E+001
+8.47511315967213E+002	-2.71296861049903E+001	-8.77451707806803E+001
+8.61721689701841E+002	-2.72749669401131E+001	-8.77080191775464E+001
+8.76170331313103E+002	-2.74186543009009E+001	-8.77118723162713E+001
+8.90861235881077E+002	-2.75618268661603E+001	-8.76774421207489E+001
+9.05798465472066E+002	-2.77116314495819E+001	-8.76324508942084E+001
+9.20986150261763E+002	-2.78579705864032E+001	-8.76120731960573E+001
+9.36428489677255E+002	-2.79981780565014E+001	-8.75881937778720E+001
+9.52129753558176E+002	-2.81452990790723E+001	-8.75355913945756E+001
+9.68094283337322E+002	-2.82860320756520E+001	-8.75091503385062E+001
+9.84326493241068E+002	-2.84281968186794E+001	-8.74586092816185E+001
+1.00083087150992E+003	-2.85751966184332E+001	-8.74271113502697E+001
+1.01761198163950E+003	-2.87184186508109E+001	-8.74155930554758E+001
+1.03467446364238E+003	-2.88685582631859E+001	-8.73593436690271E+001
+1.05202303533107E+003	-2.90104537526207E+001	-8.73186371156875E+001
+1.06966249362247E+003	-2.91561554046426E+001	-8.72723309311651E+001
+1.08759771586425E+003	-2.93045575297004E+001	-8.72364914902416E+001
+1.10583366118342E+003	-2.94478463846606E+001	-8.72053539895346E+001
+1.12437537185759E+003	-2.95888207317295E+001	-8.71575636193018E+001
+1.14322797470912E+003	-2.97312917775539E+001	-8.70952275174844E+001
+1.16239668252273E+003	-2.98798629176730E+001	-8.70511677874881E+001
+1.18188679548681E+003	-3.00252032493372E+001	-8.70256023776231E+001
+1.20170370265899E+003	-3.01704622252975E+001	-8.69775648443515E+001
